# {
#     "poni_version": 2.1,
#     "detector": "Perkin",
#     "detector_config": {
#         "pixel1": 0.0002,
#         "pixel2": 0.0002,
#         "orientation": 3
#     },
#     "dist": 1.4280177479893559,
#     "poni1": 0.23398429857415295,
#     "poni2": 0.37634908408057827,
#     "rot1": -0.003994332959290178,
#     "rot2": -0.026132616520970278,
#     "rot3": -4.71036871681453e-10,
#     "wavelength": 1.814e-11
# }
# Mask applied: user provided
# Dark current applied: False
# Flat field applied: False
# Polarization factor: None
# Normalization factor: 1.0
# --> from_PerkinElmer_detector/LaB6.xy
#       2th_deg             I 
  2.005000e+00    2.349845e+01
  2.015000e+00    2.350656e+01
  2.025000e+00    2.345454e+01
  2.035000e+00    2.340515e+01
  2.045000e+00    2.336799e+01
  2.055000e+00    2.347363e+01
  2.065000e+00    2.340834e+01
  2.075000e+00    2.336124e+01
  2.085000e+00    2.323235e+01
  2.095000e+00    2.331185e+01
  2.105000e+00    2.337748e+01
  2.115000e+00    2.330265e+01
  2.125000e+00    2.335194e+01
  2.135000e+00    2.330156e+01
  2.145000e+00    2.328629e+01
  2.155000e+00    2.326312e+01
  2.165000e+00    2.324240e+01
  2.175000e+00    2.311710e+01
  2.185000e+00    2.310875e+01
  2.195000e+00    2.312947e+01
  2.205000e+00    2.319875e+01
  2.215000e+00    2.314060e+01
  2.225000e+00    2.304002e+01
  2.235000e+00    2.302728e+01
  2.245000e+00    2.294225e+01
  2.255000e+00    2.290678e+01
  2.265000e+00    2.292537e+01
  2.275000e+00    2.292266e+01
  2.285000e+00    2.285732e+01
  2.295000e+00    2.280148e+01
  2.305000e+00    2.276160e+01
  2.315000e+00    2.270564e+01
  2.325000e+00    2.269307e+01
  2.335000e+00    2.262062e+01
  2.345000e+00    2.256855e+01
  2.355000e+00    2.255930e+01
  2.365000e+00    2.260743e+01
  2.375000e+00    2.258349e+01
  2.385000e+00    2.250136e+01
  2.395000e+00    2.249376e+01
  2.405000e+00    2.247033e+01
  2.415000e+00    2.243771e+01
  2.425000e+00    2.246466e+01
  2.435000e+00    2.237907e+01
  2.445000e+00    2.228889e+01
  2.455000e+00    2.232241e+01
  2.465000e+00    2.231329e+01
  2.475000e+00    2.226263e+01
  2.485000e+00    2.231290e+01
  2.495000e+00    2.230986e+01
  2.505000e+00    2.233497e+01
  2.515000e+00    2.222614e+01
  2.525000e+00    2.218966e+01
  2.535000e+00    2.216088e+01
  2.545000e+00    2.216214e+01
  2.555000e+00    2.207584e+01
  2.565000e+00    2.204606e+01
  2.575000e+00    2.204718e+01
  2.585000e+00    2.205205e+01
  2.595000e+00    2.204811e+01
  2.605000e+00    2.196663e+01
  2.615000e+00    2.189187e+01
  2.625000e+00    2.189510e+01
  2.635000e+00    2.187826e+01
  2.645000e+00    2.185410e+01
  2.655000e+00    2.181033e+01
  2.665000e+00    2.178557e+01
  2.675000e+00    2.181341e+01
  2.685000e+00    2.180516e+01
  2.695000e+00    2.177411e+01
  2.705000e+00    2.168364e+01
  2.715000e+00    2.168696e+01
  2.725000e+00    2.172429e+01
  2.735000e+00    2.165434e+01
  2.745000e+00    2.162770e+01
  2.755000e+00    2.158613e+01
  2.765000e+00    2.154439e+01
  2.775000e+00    2.152524e+01
  2.785000e+00    2.155244e+01
  2.795000e+00    2.156665e+01
  2.805000e+00    2.153512e+01
  2.815000e+00    2.143170e+01
  2.825000e+00    2.142139e+01
  2.835000e+00    2.144293e+01
  2.845000e+00    2.150031e+01
  2.855000e+00    2.145308e+01
  2.865000e+00    2.139115e+01
  2.875000e+00    2.141135e+01
  2.885000e+00    2.144992e+01
  2.895000e+00    2.139992e+01
  2.905000e+00    2.138031e+01
  2.915000e+00    2.142800e+01
  2.925000e+00    2.133676e+01
  2.935000e+00    2.135985e+01
  2.945000e+00    2.136252e+01
  2.955000e+00    2.136712e+01
  2.965000e+00    2.141759e+01
  2.975000e+00    2.136519e+01
  2.985000e+00    2.140897e+01
  2.995000e+00    2.142458e+01
  3.005000e+00    2.140165e+01
  3.015000e+00    2.137745e+01
  3.025000e+00    2.137143e+01
  3.035000e+00    2.136217e+01
  3.045000e+00    2.136481e+01
  3.055000e+00    2.132515e+01
  3.065000e+00    2.131472e+01
  3.075000e+00    2.140130e+01
  3.085000e+00    2.138625e+01
  3.095000e+00    2.135555e+01
  3.105000e+00    2.142161e+01
  3.115000e+00    2.139818e+01
  3.125000e+00    2.145306e+01
  3.135000e+00    2.149691e+01
  3.145000e+00    2.150562e+01
  3.155000e+00    2.160898e+01
  3.165000e+00    2.157383e+01
  3.175000e+00    2.163913e+01
  3.185000e+00    2.175430e+01
  3.195000e+00    2.184771e+01
  3.205000e+00    2.195733e+01
  3.215000e+00    2.211706e+01
  3.225000e+00    2.238710e+01
  3.235000e+00    2.274189e+01
  3.245000e+00    2.317316e+01
  3.255000e+00    2.378867e+01
  3.265000e+00    2.467901e+01
  3.275000e+00    2.610378e+01
  3.285000e+00    2.859814e+01
  3.295000e+00    3.599308e+01
  3.305000e+00    1.059047e+02
  3.315000e+00    6.655757e+02
  3.325000e+00    1.619263e+03
  3.335000e+00    1.052214e+03
  3.345000e+00    1.863600e+02
  3.355000e+00    4.161570e+01
  3.365000e+00    2.989933e+01
  3.375000e+00    2.660042e+01
  3.385000e+00    2.478115e+01
  3.395000e+00    2.367497e+01
  3.405000e+00    2.289417e+01
  3.415000e+00    2.233994e+01
  3.425000e+00    2.193889e+01
  3.435000e+00    2.158251e+01
  3.445000e+00    2.105630e+01
  3.455000e+00    2.093324e+01
  3.465000e+00    2.084865e+01
  3.475000e+00    2.072099e+01
  3.485000e+00    2.054889e+01
  3.495000e+00    2.047884e+01
  3.505000e+00    2.037489e+01
  3.515000e+00    2.026159e+01
  3.525000e+00    2.031177e+01
  3.535000e+00    2.036956e+01
  3.545000e+00    2.018943e+01
  3.555000e+00    1.998305e+01
  3.565000e+00    1.991207e+01
  3.575000e+00    1.992067e+01
  3.585000e+00    1.977817e+01
  3.595000e+00    1.984488e+01
  3.605000e+00    1.972426e+01
  3.615000e+00    1.964107e+01
  3.625000e+00    1.961504e+01
  3.635000e+00    1.969045e+01
  3.645000e+00    1.960012e+01
  3.655000e+00    1.955887e+01
  3.665000e+00    1.955693e+01
  3.675000e+00    1.952818e+01
  3.685000e+00    1.952861e+01
  3.695000e+00    1.946920e+01
  3.705000e+00    1.946529e+01
  3.715000e+00    1.949230e+01
  3.725000e+00    1.948013e+01
  3.735000e+00    1.955000e+01
  3.745000e+00    1.961466e+01
  3.755000e+00    1.972444e+01
  3.765000e+00    1.976692e+01
  3.775000e+00    1.997372e+01
  3.785000e+00    2.028688e+01
  3.795000e+00    2.080715e+01
  3.805000e+00    2.195724e+01
  3.815000e+00    2.830589e+01
  3.825000e+00    1.000533e+02
  3.835000e+00    3.582897e+02
  3.845000e+00    4.375699e+02
  3.855000e+00    1.548786e+02
  3.865000e+00    3.325701e+01
  3.875000e+00    2.238402e+01
  3.885000e+00    2.079095e+01
  3.895000e+00    2.014849e+01
  3.905000e+00    1.969886e+01
  3.915000e+00    1.937997e+01
  3.925000e+00    1.921000e+01
  3.935000e+00    1.905340e+01
  3.945000e+00    1.892033e+01
  3.955000e+00    1.885470e+01
  3.965000e+00    1.875744e+01
  3.975000e+00    1.869224e+01
  3.985000e+00    1.860547e+01
  3.995000e+00    1.855548e+01
  4.005000e+00    1.846002e+01
  4.015000e+00    1.846470e+01
  4.025000e+00    1.842713e+01
  4.035000e+00    1.837766e+01
  4.045000e+00    1.833110e+01
  4.055000e+00    1.838515e+01
  4.065000e+00    1.829331e+01
  4.075000e+00    1.819184e+01
  4.085000e+00    1.819796e+01
  4.095000e+00    1.818167e+01
  4.105000e+00    1.816352e+01
  4.115000e+00    1.811074e+01
  4.125000e+00    1.807043e+01
  4.135000e+00    1.790106e+01
  4.145000e+00    1.784110e+01
  4.155000e+00    1.789662e+01
  4.165000e+00    1.789536e+01
  4.175000e+00    1.783203e+01
  4.185000e+00    1.785694e+01
  4.195000e+00    1.778841e+01
  4.205000e+00    1.777986e+01
  4.215000e+00    1.779137e+01
  4.225000e+00    1.781431e+01
  4.235000e+00    1.774258e+01
  4.245000e+00    1.775813e+01
  4.255000e+00    1.775806e+01
  4.265000e+00    1.770346e+01
  4.275000e+00    1.773808e+01
  4.285000e+00    1.783392e+01
  4.295000e+00    1.783029e+01
  4.305000e+00    1.776197e+01
  4.315000e+00    1.775186e+01
  4.325000e+00    1.776250e+01
  4.335000e+00    1.775397e+01
  4.345000e+00    1.768665e+01
  4.355000e+00    1.763053e+01
  4.365000e+00    1.762261e+01
  4.375000e+00    1.757684e+01
  4.385000e+00    1.757988e+01
  4.395000e+00    1.758227e+01
  4.405000e+00    1.750612e+01
  4.415000e+00    1.749564e+01
  4.425000e+00    1.745250e+01
  4.435000e+00    1.742942e+01
  4.445000e+00    1.744625e+01
  4.455000e+00    1.738118e+01
  4.465000e+00    1.742124e+01
  4.475000e+00    1.748790e+01
  4.485000e+00    1.746262e+01
  4.495000e+00    1.746242e+01
  4.505000e+00    1.739470e+01
  4.515000e+00    1.736496e+01
  4.525000e+00    1.740420e+01
  4.535000e+00    1.740239e+01
  4.545000e+00    1.738012e+01
  4.555000e+00    1.737141e+01
  4.565000e+00    1.738966e+01
  4.575000e+00    1.736755e+01
  4.585000e+00    1.741985e+01
  4.595000e+00    1.736547e+01
  4.605000e+00    1.732802e+01
  4.615000e+00    1.730913e+01
  4.625000e+00    1.731993e+01
  4.635000e+00    1.728108e+01
  4.645000e+00    1.730872e+01
  4.655000e+00    1.733091e+01
  4.665000e+00    1.728023e+01
  4.675000e+00    1.724617e+01
  4.685000e+00    1.724875e+01
  4.695000e+00    1.726515e+01
  4.705000e+00    1.722630e+01
  4.715000e+00    1.724207e+01
  4.725000e+00    1.720064e+01
  4.735000e+00    1.724559e+01
  4.745000e+00    1.721274e+01
  4.755000e+00    1.716164e+01
  4.765000e+00    1.724425e+01
  4.775000e+00    1.723158e+01
  4.785000e+00    1.725221e+01
  4.795000e+00    1.722860e+01
  4.805000e+00    1.723613e+01
  4.815000e+00    1.722033e+01
  4.825000e+00    1.725790e+01
  4.835000e+00    1.722940e+01
  4.845000e+00    1.723757e+01
  4.855000e+00    1.731185e+01
  4.865000e+00    1.729668e+01
  4.875000e+00    1.724669e+01
  4.885000e+00    1.723900e+01
  4.895000e+00    1.727668e+01
  4.905000e+00    1.728719e+01
  4.915000e+00    1.726112e+01
  4.925000e+00    1.728024e+01
  4.935000e+00    1.732256e+01
  4.945000e+00    1.735284e+01
  4.955000e+00    1.735809e+01
  4.965000e+00    1.734288e+01
  4.975000e+00    1.730693e+01
  4.985000e+00    1.729394e+01
  4.995000e+00    1.730460e+01
  5.005000e+00    1.734932e+01
  5.015000e+00    1.740145e+01
  5.025000e+00    1.736673e+01
  5.035000e+00    1.737458e+01
  5.045000e+00    1.737162e+01
  5.055000e+00    1.733192e+01
  5.065000e+00    1.741258e+01
  5.075000e+00    1.743840e+01
  5.085000e+00    1.744922e+01
  5.095000e+00    1.740719e+01
  5.105000e+00    1.744761e+01
  5.115000e+00    1.742741e+01
  5.125000e+00    1.746602e+01
  5.135000e+00    1.746260e+01
  5.145000e+00    1.747166e+01
  5.155000e+00    1.753255e+01
  5.165000e+00    1.753827e+01
  5.175000e+00    1.757770e+01
  5.185000e+00    1.762855e+01
  5.195000e+00    1.770540e+01
  5.205000e+00    1.771691e+01
  5.215000e+00    1.773738e+01
  5.225000e+00    1.779094e+01
  5.235000e+00    1.780137e+01
  5.245000e+00    1.785955e+01
  5.255000e+00    1.782126e+01
  5.265000e+00    1.789854e+01
  5.275000e+00    1.797265e+01
  5.285000e+00    1.809880e+01
  5.295000e+00    1.814802e+01
  5.305000e+00    1.825735e+01
  5.315000e+00    1.838947e+01
  5.325000e+00    1.856178e+01
  5.335000e+00    1.873083e+01
  5.345000e+00    1.897558e+01
  5.355000e+00    1.928333e+01
  5.365000e+00    1.971984e+01
  5.375000e+00    2.043844e+01
  5.385000e+00    2.153104e+01
  5.395000e+00    2.386831e+01
  5.405000e+00    3.707925e+01
  5.415000e+00    1.695792e+02
  5.425000e+00    6.156816e+02
  5.435000e+00    8.787556e+02
  5.445000e+00    4.610833e+02
  5.455000e+00    8.910562e+01
  5.465000e+00    2.860840e+01
  5.475000e+00    2.295894e+01
  5.485000e+00    2.121730e+01
  5.495000e+00    2.023326e+01
  5.505000e+00    1.961057e+01
  5.515000e+00    1.917343e+01
  5.525000e+00    1.886275e+01
  5.535000e+00    1.865884e+01
  5.545000e+00    1.845171e+01
  5.555000e+00    1.828331e+01
  5.565000e+00    1.816613e+01
  5.575000e+00    1.803153e+01
  5.585000e+00    1.802683e+01
  5.595000e+00    1.797937e+01
  5.605001e+00    1.781841e+01
  5.615001e+00    1.779270e+01
  5.625001e+00    1.776019e+01
  5.635001e+00    1.771015e+01
  5.645001e+00    1.762651e+01
  5.655001e+00    1.756758e+01
  5.665001e+00    1.756670e+01
  5.675001e+00    1.755033e+01
  5.685001e+00    1.745852e+01
  5.695001e+00    1.742923e+01
  5.705001e+00    1.744175e+01
  5.715001e+00    1.740169e+01
  5.725001e+00    1.742285e+01
  5.735001e+00    1.733650e+01
  5.745001e+00    1.732938e+01
  5.755001e+00    1.731170e+01
  5.765001e+00    1.733669e+01
  5.775001e+00    1.731297e+01
  5.785001e+00    1.732439e+01
  5.795001e+00    1.730346e+01
  5.805001e+00    1.723880e+01
  5.815001e+00    1.723315e+01
  5.825001e+00    1.727395e+01
  5.835001e+00    1.724084e+01
  5.845001e+00    1.724181e+01
  5.855001e+00    1.720532e+01
  5.865001e+00    1.727603e+01
  5.875001e+00    1.723795e+01
  5.885001e+00    1.719024e+01
  5.895001e+00    1.723090e+01
  5.905001e+00    1.720400e+01
  5.915001e+00    1.721018e+01
  5.925001e+00    1.721448e+01
  5.935001e+00    1.723170e+01
  5.945001e+00    1.723259e+01
  5.955001e+00    1.724575e+01
  5.965001e+00    1.727401e+01
  5.975001e+00    1.727992e+01
  5.985001e+00    1.722908e+01
  5.995001e+00    1.718020e+01
  6.005001e+00    1.718846e+01
  6.015001e+00    1.721961e+01
  6.025001e+00    1.729948e+01
  6.035001e+00    1.725749e+01
  6.045001e+00    1.723139e+01
  6.055001e+00    1.722197e+01
  6.065001e+00    1.729441e+01
  6.075001e+00    1.733685e+01
  6.085001e+00    1.739488e+01
  6.095001e+00    1.735765e+01
  6.105001e+00    1.738460e+01
  6.115001e+00    1.744088e+01
  6.125001e+00    1.745327e+01
  6.135001e+00    1.743147e+01
  6.145001e+00    1.749295e+01
  6.155001e+00    1.749359e+01
  6.165001e+00    1.748494e+01
  6.175001e+00    1.755235e+01
  6.185001e+00    1.756779e+01
  6.195001e+00    1.760084e+01
  6.205001e+00    1.762557e+01
  6.215001e+00    1.768180e+01
  6.225001e+00    1.776030e+01
  6.235001e+00    1.786224e+01
  6.245001e+00    1.795431e+01
  6.255001e+00    1.807849e+01
  6.265001e+00    1.818591e+01
  6.275001e+00    1.840339e+01
  6.285001e+00    1.862492e+01
  6.295001e+00    1.890501e+01
  6.305001e+00    1.932749e+01
  6.315001e+00    1.995648e+01
  6.325001e+00    2.099981e+01
  6.335001e+00    2.363774e+01
  6.345001e+00    4.343942e+01
  6.355001e+00    1.999981e+02
  6.365001e+00    5.651431e+02
  6.375001e+00    6.873265e+02
  6.385001e+00    3.514897e+02
  6.395001e+00    7.304477e+01
  6.405001e+00    2.636043e+01
  6.415001e+00    2.186632e+01
  6.425001e+00    2.041371e+01
  6.435001e+00    1.953518e+01
  6.445001e+00    1.901985e+01
  6.455001e+00    1.868925e+01
  6.465001e+00    1.845760e+01
  6.475001e+00    1.824586e+01
  6.485001e+00    1.809338e+01
  6.495001e+00    1.793551e+01
  6.505001e+00    1.786385e+01
  6.515001e+00    1.776637e+01
  6.525001e+00    1.767587e+01
  6.535001e+00    1.768921e+01
  6.545001e+00    1.763592e+01
  6.555001e+00    1.760523e+01
  6.565001e+00    1.762666e+01
  6.575001e+00    1.761039e+01
  6.585001e+00    1.764108e+01
  6.595001e+00    1.774206e+01
  6.605001e+00    1.789336e+01
  6.615001e+00    1.813918e+01
  6.625001e+00    1.991779e+01
  6.635001e+00    3.659970e+01
  6.645001e+00    9.524911e+01
  6.655001e+00    1.444100e+02
  6.665001e+00    1.091190e+02
  6.675001e+00    4.172747e+01
  6.685001e+00    2.019844e+01
  6.695001e+00    1.809065e+01
  6.705001e+00    1.769680e+01
  6.715001e+00    1.746253e+01
  6.725001e+00    1.733716e+01
  6.735001e+00    1.725368e+01
  6.745001e+00    1.713689e+01
  6.755001e+00    1.706038e+01
  6.765001e+00    1.705289e+01
  6.775001e+00    1.702835e+01
  6.785001e+00    1.699590e+01
  6.795001e+00    1.698264e+01
  6.805001e+00    1.696038e+01
  6.815001e+00    1.693334e+01
  6.825001e+00    1.689439e+01
  6.835001e+00    1.687321e+01
  6.845001e+00    1.682211e+01
  6.855001e+00    1.682397e+01
  6.865001e+00    1.682096e+01
  6.875001e+00    1.676743e+01
  6.885001e+00    1.679955e+01
  6.895001e+00    1.677561e+01
  6.905001e+00    1.671907e+01
  6.915001e+00    1.671384e+01
  6.925001e+00    1.670416e+01
  6.935001e+00    1.670285e+01
  6.945001e+00    1.674037e+01
  6.955001e+00    1.668759e+01
  6.965001e+00    1.668741e+01
  6.975001e+00    1.665980e+01
  6.985001e+00    1.663083e+01
  6.995001e+00    1.667200e+01
  7.005001e+00    1.658795e+01
  7.015001e+00    1.654943e+01
  7.025001e+00    1.657344e+01
  7.035001e+00    1.655206e+01
  7.045001e+00    1.654854e+01
  7.055001e+00    1.648998e+01
  7.065001e+00    1.655751e+01
  7.075001e+00    1.664236e+01
  7.085001e+00    1.658588e+01
  7.095001e+00    1.657261e+01
  7.105001e+00    1.653968e+01
  7.115001e+00    1.649830e+01
  7.125001e+00    1.648772e+01
  7.135001e+00    1.647245e+01
  7.145001e+00    1.648724e+01
  7.155001e+00    1.645899e+01
  7.165001e+00    1.645098e+01
  7.175001e+00    1.640805e+01
  7.185001e+00    1.645557e+01
  7.195001e+00    1.649038e+01
  7.205001e+00    1.644200e+01
  7.215001e+00    1.640075e+01
  7.225001e+00    1.643775e+01
  7.235001e+00    1.644204e+01
  7.245001e+00    1.641024e+01
  7.255001e+00    1.644226e+01
  7.265001e+00    1.645880e+01
  7.275001e+00    1.642939e+01
  7.285001e+00    1.639098e+01
  7.295001e+00    1.636893e+01
  7.305001e+00    1.644147e+01
  7.315001e+00    1.643070e+01
  7.325001e+00    1.640492e+01
  7.335001e+00    1.624608e+01
  7.345001e+00    1.628316e+01
  7.355001e+00    1.631846e+01
  7.365001e+00    1.631559e+01
  7.375001e+00    1.635513e+01
  7.385001e+00    1.634903e+01
  7.395001e+00    1.634978e+01
  7.405001e+00    1.638160e+01
  7.415001e+00    1.632696e+01
  7.425001e+00    1.634373e+01
  7.435001e+00    1.637717e+01
  7.445001e+00    1.641138e+01
  7.455001e+00    1.640513e+01
  7.465001e+00    1.640853e+01
  7.475001e+00    1.637640e+01
  7.485001e+00    1.642075e+01
  7.495001e+00    1.643655e+01
  7.505001e+00    1.638002e+01
  7.515001e+00    1.637337e+01
  7.525001e+00    1.638827e+01
  7.535001e+00    1.640256e+01
  7.545001e+00    1.646847e+01
  7.555001e+00    1.644581e+01
  7.565001e+00    1.647543e+01
  7.575001e+00    1.652291e+01
  7.585001e+00    1.657746e+01
  7.595001e+00    1.659148e+01
  7.605001e+00    1.663381e+01
  7.615001e+00    1.666448e+01
  7.625001e+00    1.672712e+01
  7.635001e+00    1.689310e+01
  7.645001e+00    1.719741e+01
  7.655001e+00    1.888448e+01
  7.665001e+00    3.507404e+01
  7.675001e+00    8.883183e+01
  7.685001e+00    1.340009e+02
  7.695001e+00    1.151313e+02
  7.705001e+00    5.157792e+01
  7.715001e+00    2.100989e+01
  7.725001e+00    1.746672e+01
  7.735001e+00    1.698265e+01
  7.745001e+00    1.679647e+01
  7.755001e+00    1.662896e+01
  7.765001e+00    1.647852e+01
  7.775001e+00    1.645510e+01
  7.785001e+00    1.644445e+01
  7.795001e+00    1.638938e+01
  7.805001e+00    1.631973e+01
  7.815001e+00    1.637617e+01
  7.825001e+00    1.632956e+01
  7.835001e+00    1.628556e+01
  7.845001e+00    1.624781e+01
  7.855001e+00    1.622616e+01
  7.865001e+00    1.624719e+01
  7.875001e+00    1.625648e+01
  7.885001e+00    1.625086e+01
  7.895001e+00    1.626560e+01
  7.905001e+00    1.627849e+01
  7.915001e+00    1.626303e+01
  7.925001e+00    1.622746e+01
  7.935001e+00    1.624677e+01
  7.945001e+00    1.622724e+01
  7.955001e+00    1.623706e+01
  7.965001e+00    1.624969e+01
  7.975001e+00    1.621008e+01
  7.985001e+00    1.626001e+01
  7.995001e+00    1.624451e+01
  8.005001e+00    1.624417e+01
  8.015001e+00    1.623040e+01
  8.025001e+00    1.625506e+01
  8.035001e+00    1.621573e+01
  8.045001e+00    1.622548e+01
  8.055001e+00    1.622535e+01
  8.065001e+00    1.620715e+01
  8.075001e+00    1.622038e+01
  8.085001e+00    1.623118e+01
  8.095001e+00    1.624187e+01
  8.105001e+00    1.628166e+01
  8.115001e+00    1.626023e+01
  8.125001e+00    1.630984e+01
  8.135001e+00    1.628174e+01
  8.145001e+00    1.636618e+01
  8.155001e+00    1.635404e+01
  8.165001e+00    1.638752e+01
  8.175001e+00    1.637743e+01
  8.185001e+00    1.638214e+01
  8.195001e+00    1.643404e+01
  8.205001e+00    1.649622e+01
  8.215001e+00    1.654850e+01
  8.225001e+00    1.660665e+01
  8.235001e+00    1.667286e+01
  8.245001e+00    1.661293e+01
  8.255001e+00    1.664588e+01
  8.265001e+00    1.677009e+01
  8.275001e+00    1.681866e+01
  8.285001e+00    1.687820e+01
  8.295001e+00    1.698703e+01
  8.305001e+00    1.712507e+01
  8.315001e+00    1.736215e+01
  8.325001e+00    1.770489e+01
  8.335001e+00    1.847487e+01
  8.345001e+00    2.267408e+01
  8.355001e+00    5.746674e+01
  8.365001e+00    1.642827e+02
  8.375001e+00    2.552825e+02
  8.385001e+00    2.346916e+02
  8.395001e+00    1.147287e+02
  8.405001e+00    3.303946e+01
  8.415001e+00    1.971622e+01
  8.425001e+00    1.814032e+01
  8.435001e+00    1.760155e+01
  8.445001e+00    1.731786e+01
  8.455001e+00    1.714473e+01
  8.465001e+00    1.699622e+01
  8.475001e+00    1.686658e+01
  8.485001e+00    1.686785e+01
  8.495001e+00    1.683168e+01
  8.505001e+00    1.677873e+01
  8.515001e+00    1.686080e+01
  8.525001e+00    1.690139e+01
  8.535001e+00    1.701112e+01
  8.545001e+00    1.721434e+01
  8.555001e+00    1.783094e+01
  8.565001e+00    2.229100e+01
  8.575001e+00    5.439375e+01
  8.585001e+00    1.253423e+02
  8.595001e+00    1.668965e+02
  8.605001e+00    1.420795e+02
  8.615001e+00    6.540279e+01
  8.625001e+00    2.357743e+01
  8.635001e+00    1.795722e+01
  8.645001e+00    1.714143e+01
  8.655001e+00    1.686097e+01
  8.665001e+00    1.664320e+01
  8.675001e+00    1.649850e+01
  8.685001e+00    1.639628e+01
  8.695001e+00    1.633815e+01
  8.705001e+00    1.627661e+01
  8.715001e+00    1.621246e+01
  8.725001e+00    1.624206e+01
  8.735001e+00    1.620573e+01
  8.745001e+00    1.614313e+01
  8.755001e+00    1.609284e+01
  8.765001e+00    1.607123e+01
  8.775001e+00    1.606952e+01
  8.785001e+00    1.606753e+01
  8.795001e+00    1.601806e+01
  8.805001e+00    1.593997e+01
  8.815001e+00    1.590763e+01
  8.825001e+00    1.595273e+01
  8.835001e+00    1.590432e+01
  8.845001e+00    1.589681e+01
  8.855001e+00    1.588191e+01
  8.865001e+00    1.585724e+01
  8.875001e+00    1.585236e+01
  8.885001e+00    1.585089e+01
  8.895001e+00    1.581126e+01
  8.905001e+00    1.581175e+01
  8.915001e+00    1.577748e+01
  8.925001e+00    1.576767e+01
  8.935001e+00    1.573148e+01
  8.945001e+00    1.575538e+01
  8.955001e+00    1.579306e+01
  8.965001e+00    1.574407e+01
  8.975001e+00    1.573517e+01
  8.985001e+00    1.571260e+01
  8.995001e+00    1.570293e+01
  9.005001e+00    1.575215e+01
  9.015001e+00    1.576283e+01
  9.025001e+00    1.575243e+01
  9.035001e+00    1.577248e+01
  9.045001e+00    1.577816e+01
  9.055001e+00    1.571567e+01
  9.065001e+00    1.573895e+01
  9.075001e+00    1.570808e+01
  9.085001e+00    1.571187e+01
  9.095001e+00    1.573374e+01
  9.105001e+00    1.576159e+01
  9.115001e+00    1.574218e+01
  9.125001e+00    1.570768e+01
  9.135001e+00    1.570739e+01
  9.145001e+00    1.572945e+01
  9.155001e+00    1.572657e+01
  9.165001e+00    1.574267e+01
  9.175001e+00    1.576493e+01
  9.185001e+00    1.576373e+01
  9.195001e+00    1.577164e+01
  9.205001e+00    1.576412e+01
  9.215001e+00    1.570392e+01
  9.225001e+00    1.573530e+01
  9.235001e+00    1.584509e+01
  9.245001e+00    1.583564e+01
  9.255001e+00    1.578475e+01
  9.265001e+00    1.586617e+01
  9.275001e+00    1.585583e+01
  9.285001e+00    1.593192e+01
  9.295001e+00    1.595030e+01
  9.305001e+00    1.598341e+01
  9.315001e+00    1.609826e+01
  9.325001e+00    1.615992e+01
  9.335001e+00    1.621316e+01
  9.345001e+00    1.636412e+01
  9.355001e+00    1.659125e+01
  9.365001e+00    1.689260e+01
  9.375001e+00    1.767701e+01
  9.385001e+00    2.247487e+01
  9.395001e+00    5.770588e+01
  9.405001e+00    1.436421e+02
  9.415001e+00    2.046898e+02
  9.425001e+00    1.976181e+02
  9.435001e+00    1.168002e+02
  9.445001e+00    3.737075e+01
  9.455001e+00    1.942216e+01
  9.465001e+00    1.735006e+01
  9.475001e+00    1.677604e+01
  9.485001e+00    1.652557e+01
  9.495001e+00    1.630717e+01
  9.505001e+00    1.614494e+01
  9.515001e+00    1.602520e+01
  9.525001e+00    1.595148e+01
  9.535001e+00    1.591917e+01
  9.545001e+00    1.581528e+01
  9.555001e+00    1.576492e+01
  9.565001e+00    1.582355e+01
  9.575001e+00    1.574514e+01
  9.585001e+00    1.574012e+01
  9.595001e+00    1.575189e+01
  9.605001e+00    1.571923e+01
  9.615001e+00    1.565293e+01
  9.625001e+00    1.569220e+01
  9.635001e+00    1.570665e+01
  9.645001e+00    1.571571e+01
  9.655001e+00    1.562061e+01
  9.665001e+00    1.560920e+01
  9.675001e+00    1.561767e+01
  9.685001e+00    1.559420e+01
  9.695001e+00    1.561675e+01
  9.705001e+00    1.560364e+01
  9.715001e+00    1.559777e+01
  9.725001e+00    1.560104e+01
  9.735001e+00    1.559582e+01
  9.745001e+00    1.560687e+01
  9.755001e+00    1.556860e+01
  9.765001e+00    1.562281e+01
  9.775001e+00    1.560585e+01
  9.785001e+00    1.560147e+01
  9.795001e+00    1.558272e+01
  9.805001e+00    1.558727e+01
  9.815001e+00    1.558672e+01
  9.825001e+00    1.559562e+01
  9.835001e+00    1.567632e+01
  9.845001e+00    1.567547e+01
  9.855001e+00    1.567550e+01
  9.865001e+00    1.572871e+01
  9.875001e+00    1.575015e+01
  9.885001e+00    1.576012e+01
  9.895001e+00    1.588155e+01
  9.905001e+00    1.597185e+01
  9.915001e+00    1.605429e+01
  9.925001e+00    1.620127e+01
  9.935001e+00    1.642600e+01
  9.945001e+00    1.691116e+01
  9.955001e+00    1.924898e+01
  9.965001e+00    3.883801e+01
  9.975001e+00    1.006872e+02
  9.985001e+00    1.582236e+02
  9.995001e+00    1.674723e+02
  1.000500e+01    1.255531e+02
  1.001500e+01    5.019247e+01
  1.002500e+01    2.066984e+01
  1.003500e+01    1.722987e+01
  1.004500e+01    1.664805e+01
  1.005500e+01    1.628403e+01
  1.006500e+01    1.608514e+01
  1.007500e+01    1.593361e+01
  1.008500e+01    1.579039e+01
  1.009500e+01    1.578690e+01
  1.010500e+01    1.568202e+01
  1.011500e+01    1.560841e+01
  1.012500e+01    1.558368e+01
  1.013500e+01    1.555494e+01
  1.014500e+01    1.550992e+01
  1.015500e+01    1.546041e+01
  1.016500e+01    1.544368e+01
  1.017500e+01    1.539106e+01
  1.018500e+01    1.533729e+01
  1.019500e+01    1.536550e+01
  1.020500e+01    1.534699e+01
  1.021500e+01    1.536640e+01
  1.022500e+01    1.539634e+01
  1.023500e+01    1.535446e+01
  1.024500e+01    1.528459e+01
  1.025500e+01    1.531231e+01
  1.026500e+01    1.531238e+01
  1.027500e+01    1.524532e+01
  1.028500e+01    1.523502e+01
  1.029500e+01    1.521384e+01
  1.030500e+01    1.524000e+01
  1.031500e+01    1.522102e+01
  1.032500e+01    1.524098e+01
  1.033500e+01    1.518030e+01
  1.034500e+01    1.516619e+01
  1.035500e+01    1.521238e+01
  1.036500e+01    1.519019e+01
  1.037500e+01    1.521016e+01
  1.038500e+01    1.520965e+01
  1.039500e+01    1.521257e+01
  1.040500e+01    1.519714e+01
  1.041500e+01    1.520922e+01
  1.042500e+01    1.523446e+01
  1.043500e+01    1.517737e+01
  1.044500e+01    1.516774e+01
  1.045500e+01    1.517799e+01
  1.046500e+01    1.517507e+01
  1.047500e+01    1.518196e+01
  1.048500e+01    1.521388e+01
  1.049500e+01    1.518938e+01
  1.050500e+01    1.516612e+01
  1.051500e+01    1.523930e+01
  1.052500e+01    1.525079e+01
  1.053500e+01    1.516752e+01
  1.054500e+01    1.520535e+01
  1.055500e+01    1.519882e+01
  1.056500e+01    1.521672e+01
  1.057500e+01    1.524786e+01
  1.058500e+01    1.526014e+01
  1.059500e+01    1.525922e+01
  1.060500e+01    1.528970e+01
  1.061500e+01    1.529710e+01
  1.062500e+01    1.525372e+01
  1.063500e+01    1.526409e+01
  1.064500e+01    1.525654e+01
  1.065500e+01    1.532235e+01
  1.066500e+01    1.533471e+01
  1.067500e+01    1.530073e+01
  1.068500e+01    1.527186e+01
  1.069500e+01    1.532944e+01
  1.070500e+01    1.536433e+01
  1.071500e+01    1.537881e+01
  1.072500e+01    1.533983e+01
  1.073500e+01    1.537377e+01
  1.074500e+01    1.540583e+01
  1.075500e+01    1.537659e+01
  1.076500e+01    1.539819e+01
  1.077500e+01    1.547660e+01
  1.078500e+01    1.550387e+01
  1.079500e+01    1.550389e+01
  1.080500e+01    1.551804e+01
  1.081500e+01    1.560917e+01
  1.082500e+01    1.577244e+01
  1.083500e+01    1.596659e+01
  1.084500e+01    1.748485e+01
  1.085500e+01    2.752901e+01
  1.086500e+01    5.016776e+01
  1.087500e+01    6.610151e+01
  1.088500e+01    6.741740e+01
  1.089500e+01    5.367754e+01
  1.090500e+01    2.829182e+01
  1.091500e+01    1.752055e+01
  1.092500e+01    1.612441e+01
  1.093500e+01    1.590223e+01
  1.094500e+01    1.574689e+01
  1.095500e+01    1.564747e+01
  1.096500e+01    1.560844e+01
  1.097500e+01    1.559683e+01
  1.098500e+01    1.557016e+01
  1.099500e+01    1.555887e+01
  1.100500e+01    1.561326e+01
  1.101500e+01    1.560000e+01
  1.102500e+01    1.558886e+01
  1.103500e+01    1.561316e+01
  1.104500e+01    1.564478e+01
  1.105500e+01    1.556527e+01
  1.106500e+01    1.555378e+01
  1.107500e+01    1.562862e+01
  1.108500e+01    1.560217e+01
  1.109500e+01    1.556929e+01
  1.110500e+01    1.561820e+01
  1.111500e+01    1.559886e+01
  1.112500e+01    1.569289e+01
  1.113500e+01    1.568579e+01
  1.114500e+01    1.572629e+01
  1.115500e+01    1.567314e+01
  1.116500e+01    1.569191e+01
  1.117500e+01    1.570583e+01
  1.118500e+01    1.574216e+01
  1.119500e+01    1.579708e+01
  1.120500e+01    1.580311e+01
  1.121500e+01    1.588775e+01
  1.122500e+01    1.588094e+01
  1.123500e+01    1.591341e+01
  1.124500e+01    1.592649e+01
  1.125500e+01    1.596445e+01
  1.126500e+01    1.601345e+01
  1.127500e+01    1.602762e+01
  1.128500e+01    1.613741e+01
  1.129500e+01    1.633100e+01
  1.130500e+01    1.640370e+01
  1.131500e+01    1.654212e+01
  1.132500e+01    1.681862e+01
  1.133500e+01    1.751041e+01
  1.134500e+01    2.150932e+01
  1.135500e+01    4.785742e+01
  1.136500e+01    1.060781e+02
  1.137500e+01    1.462753e+02
  1.138500e+01    1.510582e+02
  1.139500e+01    1.217690e+02
  1.140500e+01    5.671271e+01
  1.141500e+01    2.286960e+01
  1.142500e+01    1.790287e+01
  1.143500e+01    1.726736e+01
  1.144500e+01    1.690031e+01
  1.145500e+01    1.673797e+01
  1.146500e+01    1.664999e+01
  1.147500e+01    1.661531e+01
  1.148500e+01    1.664406e+01
  1.149500e+01    1.679206e+01
  1.150500e+01    1.797507e+01
  1.151500e+01    2.682274e+01
  1.152500e+01    5.089965e+01
  1.153500e+01    7.150325e+01
  1.154500e+01    7.601305e+01
  1.155500e+01    6.751868e+01
  1.156500e+01    4.047264e+01
  1.157500e+01    2.072029e+01
  1.158500e+01    1.698125e+01
  1.159500e+01    1.647102e+01
  1.160500e+01    1.623671e+01
  1.161500e+01    1.609849e+01
  1.162500e+01    1.606480e+01
  1.163500e+01    1.603687e+01
  1.164500e+01    1.595712e+01
  1.165500e+01    1.594527e+01
  1.166500e+01    1.586268e+01
  1.167500e+01    1.587438e+01
  1.168500e+01    1.589171e+01
  1.169500e+01    1.584978e+01
  1.170500e+01    1.585026e+01
  1.171500e+01    1.582105e+01
  1.172500e+01    1.574891e+01
  1.173500e+01    1.576032e+01
  1.174500e+01    1.572862e+01
  1.175500e+01    1.574064e+01
  1.176500e+01    1.571733e+01
  1.177500e+01    1.574825e+01
  1.178500e+01    1.571337e+01
  1.179500e+01    1.574425e+01
  1.180500e+01    1.571917e+01
  1.181500e+01    1.570856e+01
  1.182500e+01    1.566151e+01
  1.183500e+01    1.572392e+01
  1.184500e+01    1.570059e+01
  1.185500e+01    1.571056e+01
  1.186500e+01    1.564180e+01
  1.187500e+01    1.569095e+01
  1.188500e+01    1.572622e+01
  1.189500e+01    1.568748e+01
  1.190500e+01    1.572439e+01
  1.191500e+01    1.577530e+01
  1.192500e+01    1.568443e+01
  1.193500e+01    1.575889e+01
  1.194500e+01    1.572195e+01
  1.195500e+01    1.571104e+01
  1.196500e+01    1.570295e+01
  1.197500e+01    1.571251e+01
  1.198500e+01    1.574922e+01
  1.199500e+01    1.581952e+01
  1.200500e+01    1.577006e+01
  1.201500e+01    1.576679e+01
  1.202500e+01    1.583897e+01
  1.203500e+01    1.585348e+01
  1.204500e+01    1.584654e+01
  1.205500e+01    1.589822e+01
  1.206500e+01    1.589368e+01
  1.207500e+01    1.592301e+01
  1.208500e+01    1.603057e+01
  1.209500e+01    1.609747e+01
  1.210500e+01    1.618127e+01
  1.211500e+01    1.627265e+01
  1.212500e+01    1.671054e+01
  1.213500e+01    1.957022e+01
  1.214500e+01    3.582625e+01
  1.215500e+01    6.503574e+01
  1.216500e+01    8.113235e+01
  1.217500e+01    8.225591e+01
  1.218500e+01    6.909602e+01
  1.219500e+01    3.739941e+01
  1.220500e+01    1.960725e+01
  1.221500e+01    1.689621e+01
  1.222500e+01    1.650765e+01
  1.223500e+01    1.629015e+01
  1.224500e+01    1.610784e+01
  1.225500e+01    1.609445e+01
  1.226500e+01    1.609846e+01
  1.227500e+01    1.601561e+01
  1.228500e+01    1.600307e+01
  1.229500e+01    1.594209e+01
  1.230500e+01    1.592835e+01
  1.231500e+01    1.593887e+01
  1.232500e+01    1.593676e+01
  1.233500e+01    1.584967e+01
  1.234500e+01    1.584831e+01
  1.235500e+01    1.591021e+01
  1.236500e+01    1.586847e+01
  1.237500e+01    1.587645e+01
  1.238500e+01    1.587748e+01
  1.239500e+01    1.584164e+01
  1.240500e+01    1.587608e+01
  1.241500e+01    1.583125e+01
  1.242500e+01    1.583707e+01
  1.243500e+01    1.586412e+01
  1.244500e+01    1.591062e+01
  1.245500e+01    1.589310e+01
  1.246500e+01    1.591325e+01
  1.247500e+01    1.588114e+01
  1.248500e+01    1.593159e+01
  1.249500e+01    1.594079e+01
  1.250500e+01    1.599097e+01
  1.251500e+01    1.600421e+01
  1.252500e+01    1.604442e+01
  1.253500e+01    1.609072e+01
  1.254500e+01    1.610791e+01
  1.255500e+01    1.616197e+01
  1.256500e+01    1.630271e+01
  1.257500e+01    1.658314e+01
  1.258500e+01    1.881832e+01
  1.259500e+01    3.004249e+01
  1.260500e+01    4.892096e+01
  1.261500e+01    5.938868e+01
  1.262500e+01    6.033967e+01
  1.263500e+01    5.291735e+01
  1.264500e+01    3.281531e+01
  1.265500e+01    1.933134e+01
  1.266500e+01    1.680403e+01
  1.267500e+01    1.642934e+01
  1.268500e+01    1.639330e+01
  1.269500e+01    1.639870e+01
  1.270500e+01    1.636588e+01
  1.271500e+01    1.643761e+01
  1.272500e+01    1.685583e+01
  1.273500e+01    1.992164e+01
  1.274500e+01    3.110532e+01
  1.275500e+01    4.389962e+01
  1.276500e+01    4.854570e+01
  1.277500e+01    4.774129e+01
  1.278500e+01    3.917616e+01
  1.279500e+01    2.394589e+01
  1.280500e+01    1.732881e+01
  1.281500e+01    1.643678e+01
  1.282500e+01    1.626345e+01
  1.283500e+01    1.621077e+01
  1.284500e+01    1.614190e+01
  1.285500e+01    1.608084e+01
  1.286500e+01    1.604847e+01
  1.287500e+01    1.606425e+01
  1.288500e+01    1.605761e+01
  1.289500e+01    1.606732e+01
  1.290500e+01    1.600209e+01
  1.291500e+01    1.599952e+01
  1.292500e+01    1.599241e+01
  1.293500e+01    1.599695e+01
  1.294500e+01    1.598032e+01
  1.295500e+01    1.602988e+01
  1.296500e+01    1.606838e+01
  1.297500e+01    1.601404e+01
  1.298500e+01    1.601563e+01
  1.299500e+01    1.599542e+01
  1.300500e+01    1.601667e+01
  1.301500e+01    1.603322e+01
  1.302500e+01    1.596903e+01
  1.303500e+01    1.598748e+01
  1.304500e+01    1.597605e+01
  1.305500e+01    1.600964e+01
  1.306500e+01    1.600726e+01
  1.307500e+01    1.599465e+01
  1.308500e+01    1.598729e+01
  1.309500e+01    1.595063e+01
  1.310500e+01    1.598912e+01
  1.311500e+01    1.593675e+01
  1.312500e+01    1.594789e+01
  1.313500e+01    1.599339e+01
  1.314500e+01    1.597581e+01
  1.315500e+01    1.598623e+01
  1.316500e+01    1.606303e+01
  1.317500e+01    1.610379e+01
  1.318500e+01    1.605419e+01
  1.319500e+01    1.598923e+01
  1.320500e+01    1.598541e+01
  1.321500e+01    1.602784e+01
  1.322500e+01    1.606297e+01
  1.323500e+01    1.599521e+01
  1.324500e+01    1.605526e+01
  1.325500e+01    1.613740e+01
  1.326500e+01    1.610589e+01
  1.327500e+01    1.617861e+01
  1.328500e+01    1.628245e+01
  1.329500e+01    1.648458e+01
  1.330500e+01    1.795713e+01
  1.331500e+01    2.300151e+01
  1.332500e+01    2.884659e+01
  1.333500e+01    3.101810e+01
  1.334500e+01    3.092114e+01
  1.335500e+01    2.772603e+01
  1.336500e+01    2.099535e+01
  1.337500e+01    1.708668e+01
  1.338500e+01    1.643326e+01
  1.339500e+01    1.634865e+01
  1.340500e+01    1.626953e+01
  1.341500e+01    1.625175e+01
  1.342500e+01    1.620038e+01
  1.343500e+01    1.623555e+01
  1.344500e+01    1.622124e+01
  1.345500e+01    1.628450e+01
  1.346500e+01    1.628099e+01
  1.347500e+01    1.623494e+01
  1.348500e+01    1.625128e+01
  1.349500e+01    1.630627e+01
  1.350500e+01    1.634094e+01
  1.351500e+01    1.630961e+01
  1.352500e+01    1.629250e+01
  1.353500e+01    1.635663e+01
  1.354500e+01    1.634397e+01
  1.355500e+01    1.634379e+01
  1.356500e+01    1.642392e+01
  1.357500e+01    1.645403e+01
  1.358500e+01    1.638447e+01
  1.359500e+01    1.644102e+01
  1.360500e+01    1.643214e+01
  1.361500e+01    1.637797e+01
  1.362500e+01    1.651807e+01
  1.363500e+01    1.652784e+01
  1.364500e+01    1.659247e+01
  1.365500e+01    1.661872e+01
  1.366500e+01    1.665881e+01
  1.367500e+01    1.673067e+01
  1.368500e+01    1.693549e+01
  1.369500e+01    1.710904e+01
  1.370500e+01    1.765641e+01
  1.371500e+01    2.151734e+01
  1.372500e+01    3.885065e+01
  1.373500e+01    6.513213e+01
  1.374500e+01    7.817182e+01
  1.375500e+01    7.976008e+01
  1.376500e+01    7.276540e+01
  1.377500e+01    4.768550e+01
  1.378500e+01    2.417359e+01
  1.379500e+01    1.827166e+01
  1.380500e+01    1.747731e+01
  1.381500e+01    1.725616e+01
  1.382500e+01    1.710370e+01
  1.383500e+01    1.718579e+01
  1.384500e+01    1.768414e+01
  1.385500e+01    2.116030e+01
  1.386500e+01    3.013015e+01
  1.387500e+01    3.767077e+01
  1.388500e+01    3.976578e+01
  1.389500e+01    3.917042e+01
  1.390500e+01    3.363681e+01
  1.391500e+01    2.311463e+01
  1.392500e+01    1.791525e+01
  1.393500e+01    1.705510e+01
  1.394500e+01    1.685666e+01
  1.395500e+01    1.684350e+01
  1.396500e+01    1.670303e+01
  1.397500e+01    1.665575e+01
  1.398500e+01    1.669076e+01
  1.399500e+01    1.669121e+01
